frequency	alpha_c	alpha_d	Er_right	Er_wrong
1.000E-02	0.029298478	0.000559449	2.354295673	1.872794201
3.200E-02	0.052412676	0.00179037	2.153890289	1.872794201
5.400E-02	0.068086536	0.003021291	2.056652727	1.872794201
7.601E-02	0.080774155	0.004252212	2.023021781	1.872794201
9.801E-02	0.091723236	0.005483133	2.009027251	1.872794201
1.200E-01	0.101497979	0.006714054	1.999068541	1.872794201
1.420E-01	0.110410722	0.007944975	1.990258286	1.872794201
1.640E-01	0.118655869	0.009175896	1.986230825	1.872794201
1.860E-01	0.126364169	0.010406817	1.979221597	1.872794201
2.080E-01	0.133628556	0.011637738	1.974277204	1.872794201
2.300E-01	0.140517895	0.012868659	1.968059593	1.872794201
2.520E-01	0.147084895	0.01409958	1.9644153	1.872794201
2.740E-01	0.153370969	0.015330501	1.961474499	1.872794201
2.960E-01	0.159409354	0.016561422	1.958160887	1.872794201
3.180E-01	0.165227207	0.017792343	1.955719916	1.872794201
3.400E-01	0.170847059	0.019023264	1.95418137	1.872794201
3.620E-01	0.176287848	0.020254186	1.951445764	1.872794201
3.840E-01	0.181565672	0.021485107	1.948782572	1.872794201
4.060E-01	0.186694352	0.022716028	1.946266156	1.872794201
4.280E-01	0.19168586	0.023946949	1.944406741	1.872794201
4.500E-01	0.196550646	0.02517787	1.94325163	1.872794201
4.721E-01	0.2012979	0.026408791	1.942204495	1.872794201
4.941E-01	0.205935748	0.027639712	1.941379062	1.872794201
5.161E-01	0.210471423	0.028870633	1.939771792	1.872794201
5.381E-01	0.214911395	0.030101554	1.938095432	1.872794201
5.601E-01	0.219261478	0.031332475	1.936898339	1.872794201
5.821E-01	0.223526919	0.032563396	1.935819011	1.872794201
6.041E-01	0.227712475	0.033794317	1.934860579	1.872794201
6.261E-01	0.231822473	0.035025238	1.933574148	1.872794201
6.481E-01	0.235860863	0.036256159	1.932457181	1.872794201
6.701E-01	0.239831263	0.03748708	1.930860728	1.872794201
6.921E-01	0.243736994	0.038718002	1.929671513	1.872794201
7.141E-01	0.247581118	0.039948923	1.928585073	1.872794201
7.361E-01	0.251366461	0.041179844	1.92774002	1.872794201
7.581E-01	0.25509564	0.042410765	1.927281859	1.872794201
7.801E-01	0.258771083	0.043641686	1.926606779	1.872794201
8.021E-01	0.262395048	0.044872607	1.925509382	1.872794201
8.241E-01	0.265969639	0.046103528	1.92459417	1.872794201
8.461E-01	0.269496821	0.047334449	1.923729264	1.872794201
8.681E-01	0.272978432	0.04856537	1.922936447	1.872794201
8.901E-01	0.276416194	0.049796291	1.922573593	1.872794201
9.121E-01	0.279811723	0.051027212	1.92210301	1.872794201
9.341E-01	0.283166537	0.052258133	1.921320358	1.872794201
9.561E-01	0.286482069	0.053489054	1.91981115	1.872794201
9.781E-01	0.289759665	0.054719975	1.919328841	1.872794201
1.000E+00	0.2930006	0.055950896	1.918906564	1.872794201
1.022E+00	0.296206075	0.057181817	1.918356287	1.872794201
1.044E+00	0.299377232	0.058412739	1.918014576	1.872794201
1.066E+00	0.302515148	0.05964366	1.91765376	1.872794201
1.088E+00	0.305620848	0.060874581	1.917061983	1.872794201
1.110E+00	0.308695303	0.062105502	1.916223322	1.872794201
1.132E+00	0.311739439	0.063336423	1.915797548	1.872794201
1.154E+00	0.314754136	0.064567344	1.915340986	1.872794201
1.176E+00	0.31774023	0.065798265	1.915047736	1.872794201
1.198E+00	0.320698521	0.067029186	1.914664915	1.872794201
1.220E+00	0.323629772	0.068260107	1.914383977	1.872794201
1.242E+00	0.32653471	0.069491028	1.913955169	1.872794201
1.264E+00	0.329414032	0.070721949	1.913393166	1.872794201
1.286E+00	0.332268404	0.07195287	1.913004812	1.872794201
1.308E+00	0.335098464	0.073183791	1.912605838	1.872794201
1.330E+00	0.337904821	0.074414712	1.912436129	1.872794201
1.352E+00	0.340688063	0.075645633	1.912257596	1.872794201
1.374E+00	0.34344875	0.076876555	1.912147824	1.872794201
1.396E+00	0.346187423	0.078107476	1.912030735	1.872794201
1.418E+00	0.348904599	0.079338397	1.911917373	1.872794201
1.440E+00	0.351600778	0.080569318	1.911680962	1.872794201
1.462E+00	0.354276439	0.081800239	1.911604729	1.872794201
1.484E+00	0.356932042	0.08303116	1.911381492	1.872794201
1.506E+00	0.359568033	0.084262081	1.911126398	1.872794201
1.528E+00	0.36218484	0.085493002	1.910797471	1.872794201
1.550E+00	0.364782875	0.086723923	1.910455002	1.872794201
1.572E+00	0.367362537	0.087954844	1.910219361	1.872794201
1.594E+00	0.369924211	0.089185765	1.909850001	1.872794201
1.616E+00	0.372468266	0.090416686	1.909707025	1.872794201
1.638E+00	0.374995063	0.091647607	1.909507558	1.872794201
1.660E+00	0.377504947	0.092878528	1.909369743	1.872794201
1.682E+00	0.379998254	0.094109449	1.908977092	1.872794201
1.704E+00	0.382475307	0.09534037	1.908743251	1.872794201
1.726E+00	0.384936421	0.096571291	1.908326319	1.872794201
1.748E+00	0.3873819	0.097802213	1.908140547	1.872794201
1.770E+00	0.389812037	0.099033134	1.908002697	1.872794201
1.792E+00	0.392227118	0.100264055	1.907902899	1.872794201
1.814E+00	0.394627419	0.101494976	1.907887681	1.872794201
1.836E+00	0.397013208	0.102725897	1.907916933	1.872794201
1.858E+00	0.399384746	0.103956818	1.90804473	1.872794201
1.880E+00	0.401742284	0.105187739	1.906464178	1.872794201
1.902E+00	0.404086068	0.10641866	1.905086978	1.872794201
1.924E+00	0.406416336	0.107649581	1.905295941	1.872794201
1.946E+00	0.408733319	0.108880502	1.905243027	1.872794201
1.968E+00	0.411037242	0.110111423	1.905171807	1.872794201
1.990E+00	0.413328322	0.111342344	1.9049021	1.872794201
2.012E+00	0.415606773	0.112573265	1.904736289	1.872794201
2.034E+00	0.417872801	0.113804186	1.904559691	1.872794201
2.056E+00	0.420126606	0.115035107	1.904424179	1.872794201
2.078E+00	0.422368385	0.116266029	1.904428379	1.872794201
2.100E+00	0.424598329	0.11749695	1.90415924	1.872794201
2.122E+00	0.426816622	0.118727871	1.904012675	1.872794201
2.144E+00	0.429023445	0.119958792	1.903641704	1.872794201
2.166E+00	0.431218975	0.121189713	1.903585073	1.872794201
2.188E+00	0.433403383	0.122420634	1.903282734	1.872794201
2.210E+00	0.435576836	0.123651555	1.903171623	1.872794201
2.232E+00	0.437739497	0.124882476	1.90305704	1.872794201
2.254E+00	0.439891527	0.126113397	1.90295948	1.872794201
2.276E+00	0.442033079	0.127344318	1.902684011	1.872794201
2.298E+00	0.444164306	0.128575239	1.902512637	1.872794201
2.320E+00	0.446285356	0.12980616	1.902382328	1.872794201
2.342E+00	0.448396372	0.131037081	1.902143529	1.872794201
2.364E+00	0.450497496	0.132268002	1.901909135	1.872794201
2.386E+00	0.452588867	0.133498923	1.901764614	1.872794201
2.408E+00	0.454670617	0.134729844	1.901652323	1.872794201
2.430E+00	0.456742879	0.135960766	1.901455806	1.872794201
2.452E+00	0.458805782	0.137191687	1.901253055	1.872794201
2.474E+00	0.460859451	0.138422608	1.901135071	1.872794201
2.496E+00	0.462904008	0.139653529	1.90102914	1.872794201
2.518E+00	0.464939575	0.14088445	1.900938969	1.872794201
2.540E+00	0.466966269	0.142115371	1.900863268	1.872794201
2.562E+00	0.468984205	0.143346292	1.9005612	1.872794201
2.584E+00	0.470993495	0.144577213	1.900474679	1.872794201
2.606E+00	0.472994249	0.145808134	1.900248751	1.872794201
2.628E+00	0.474986576	0.147039055	1.900192996	1.872794201
2.650E+00	0.476970581	0.148269976	1.899946504	1.872794201
2.672E+00	0.478946368	0.149500897	1.899956664	1.872794201
2.694E+00	0.480914037	0.150731818	1.899904809	1.872794201
2.716E+00	0.482873688	0.151962739	1.899841391	1.872794201
2.738E+00	0.484825419	0.15319366	1.899707518	1.872794201
2.760E+00	0.486769324	0.154424582	1.899624467	1.872794201
2.782E+00	0.488705496	0.155655503	1.899670169	1.872794201
2.804E+00	0.490634029	0.156886424	1.899585288	1.872794201
2.826E+00	0.49255501	0.158117345	1.898698128	1.872794201
2.848E+00	0.494468528	0.159348266	1.898171335	1.872794201
2.870E+00	0.49637467	0.160579187	1.898163913	1.872794201
2.892E+00	0.498273521	0.161810108	1.898039156	1.872794201
2.914E+00	0.500165162	0.163041029	1.898124666	1.872794201
2.936E+00	0.502049676	0.16427195	1.898127752	1.872794201
2.958E+00	0.503927142	0.165502871	1.89803042	1.872794201
2.980E+00	0.50579764	0.166733792	1.897917709	1.872794201
3.002E+00	0.507661245	0.167964713	1.897848192	1.872794201
3.024E+00	0.509518035	0.169195634	1.897693302	1.872794201
3.046E+00	0.511368082	0.170426555	1.897596404	1.872794201
3.068E+00	0.513211461	0.171657476	1.897506726	1.872794201
3.090E+00	0.515048242	0.172888397	1.897470088	1.872794201
3.112E+00	0.516878496	0.174119319	1.897377545	1.872794201
3.134E+00	0.518702291	0.17535024	1.897344008	1.872794201
3.156E+00	0.520519697	0.176581161	1.89721159	1.872794201
3.178E+00	0.522330779	0.177812082	1.897129801	1.872794201
3.200E+00	0.524135603	0.179043003	1.897132894	1.872794201
3.222E+00	0.525934234	0.180273924	1.897133252	1.872794201
3.244E+00	0.527726734	0.181504845	1.897168307	1.872794201
3.266E+00	0.529513167	0.182735766	1.897244047	1.872794201
3.288E+00	0.531293593	0.183966687	1.896723736	1.872794201
3.310E+00	0.533068072	0.185197608	1.896210412	1.872794201
3.332E+00	0.534836664	0.186428529	1.895970939	1.872794201
3.354E+00	0.536599427	0.18765945	1.896020532	1.872794201
3.376E+00	0.538356418	0.188890371	1.89601009	1.872794201
3.398E+00	0.540107693	0.190121292	1.895996803	1.872794201
3.420E+00	0.541853309	0.191352213	1.895936558	1.872794201
3.442E+00	0.543593319	0.192583134	1.895877388	1.872794201
3.464E+00	0.545327776	0.193814056	1.895800527	1.872794201
3.486E+00	0.547056735	0.195044977	1.895721054	1.872794201
3.508E+00	0.548780247	0.196275898	1.89564183	1.872794201
3.530E+00	0.550498363	0.197506819	1.895592531	1.872794201
3.552E+00	0.552211133	0.19873774	1.895535591	1.872794201
3.574E+00	0.553918607	0.199968661	1.895424842	1.872794201
3.596E+00	0.555620833	0.201199582	1.895391597	1.872794201
3.618E+00	0.557317861	0.202430503	1.895260476	1.872794201
3.640E+00	0.559009737	0.203661424	1.895177674	1.872794201
3.662E+00	0.560696508	0.204892345	1.895106672	1.872794201
3.684E+00	0.562378219	0.206123266	1.895031596	1.872794201
3.706E+00	0.564054917	0.207354187	1.895017315	1.872794201
3.728E+00	0.565726645	0.208585108	1.894931949	1.872794201
3.750E+00	0.567393448	0.209816029	1.894912883	1.872794201
3.772E+00	0.569055369	0.21104695	1.894564209	1.872794201
3.794E+00	0.57071245	0.212277872	1.894339386	1.872794201
3.816E+00	0.572364734	0.213508793	1.894293798	1.872794201
3.838E+00	0.574012261	0.214739714	1.89419953	1.872794201
3.860E+00	0.575655074	0.215970635	1.894137557	1.872794201
3.882E+00	0.577293211	0.217201556	1.894056858	1.872794201
3.904E+00	0.578926713	0.218432477	1.894012883	1.872794201
3.926E+00	0.580555619	0.219663398	1.893912235	1.872794201
3.948E+00	0.582179968	0.220894319	1.893863699	1.872794201
3.970E+00	0.583799797	0.22212524	1.893786643	1.872794201
3.992E+00	0.585415144	0.223356161	1.893717908	1.872794201
4.014E+00	0.587026046	0.224587082	1.893616312	1.872794201
4.036E+00	0.588632539	0.225818003	1.893534218	1.872794201
4.058E+00	0.59023466	0.227048924	1.893513369	1.872794201
4.080E+00	0.591832444	0.228279845	1.893395814	1.872794201
4.102E+00	0.593425926	0.229510766	1.89335745	1.872794201
4.124E+00	0.595015141	0.230741687	1.893286299	1.872794201
4.146E+00	0.596600122	0.231972609	1.893248798	1.872794201
4.168E+00	0.598180903	0.23320353	1.89313494	1.872794201
4.190E+00	0.599757518	0.234434451	1.893058872	1.872794201
4.212E+00	0.60133	0.235665372	1.89300066	1.872794201
4.234E+00	0.60289838	0.236896293	1.892942186	1.872794201
4.256E+00	0.604462691	0.238127214	1.892884316	1.872794201
4.278E+00	0.606022963	0.239358135	1.892807391	1.872794201
4.300E+00	0.607579229	0.240589056	1.892681826	1.872794201
4.322E+00	0.609131519	0.241819977	1.892652216	1.872794201
4.344E+00	0.610679863	0.243050898	1.89260053	1.872794201
4.366E+00	0.612224292	0.244281819	1.892568651	1.872794201
4.388E+00	0.613764834	0.24551274	1.892493147	1.872794201
4.410E+00	0.615301519	0.246743661	1.892461675	1.872794201
4.432E+00	0.616834375	0.247974582	1.892401621	1.872794201
4.454E+00	0.618363432	0.249205503	1.892340391	1.872794201
4.476E+00	0.619888717	0.250436424	1.892400342	1.872794201
4.498E+00	0.621410259	0.251667346	1.892379928	1.872794201
4.520E+00	0.622928084	0.252898267	1.892337541	1.872794201
4.542E+00	0.624442219	0.254129188	1.892252852	1.872794201
4.564E+00	0.625952692	0.255360109	1.892279893	1.872794201
4.586E+00	0.627459529	0.25659103	1.892258874	1.872794201
4.609E+00	0.628962756	0.257821951	1.892310655	1.872794201
4.631E+00	0.630462399	0.259052872	1.892406711	1.872794201
4.653E+00	0.631958483	0.260283793	1.892491555	1.872794201
4.675E+00	0.633451034	0.261514714	1.892610029	1.872794201
4.697E+00	0.634940076	0.262745635	1.89236673	1.872794201
4.719E+00	0.636425634	0.263976556	1.891182979	1.872794201
4.741E+00	0.637907733	0.265207477	1.89031359	1.872794201
4.763E+00	0.639386396	0.266438398	1.8903055	1.872794201
4.785E+00	0.640861647	0.267669319	1.890438314	1.872794201
4.807E+00	0.642333511	0.26890024	1.89053189	1.872794201
4.829E+00	0.643802009	0.270131162	1.890624671	1.872794201
4.851E+00	0.645267165	0.271362083	1.890722026	1.872794201
4.873E+00	0.646729002	0.272593004	1.890772584	1.872794201
4.895E+00	0.648187542	0.273823925	1.890716719	1.872794201
4.917E+00	0.649642808	0.275054846	1.890726067	1.872794201
4.939E+00	0.651094821	0.276285767	1.890741897	1.872794201
4.961E+00	0.652543603	0.277516688	1.890739986	1.872794201
4.983E+00	0.653989175	0.278747609	1.89076302	1.872794201
5.005E+00	0.655431559	0.27997853	1.890779294	1.872794201
5.027E+00	0.656870776	0.281209451	1.890805587	1.872794201
5.049E+00	0.658306847	0.282440372	1.890802078	1.872794201
5.071E+00	0.659739791	0.283671293	1.890856246	1.872794201
5.093E+00	0.66116963	0.284902214	1.890912343	1.872794201
5.115E+00	0.662596384	0.286133135	1.890959179	1.872794201
5.137E+00	0.664020072	0.287364056	1.891047745	1.872794201
5.159E+00	0.665440714	0.288594977	1.891102846	1.872794201
5.181E+00	0.666858329	0.289825899	1.890502218	1.872794201
5.203E+00	0.668272938	0.29105682	1.889906765	1.872794201
5.225E+00	0.669684558	0.292287741	1.889750169	1.872794201
5.247E+00	0.671093209	0.293518662	1.889792303	1.872794201
5.269E+00	0.672498909	0.294749583	1.88986127	1.872794201
5.291E+00	0.673901677	0.295980504	1.889973213	1.872794201
5.313E+00	0.675301531	0.297211425	1.889979256	1.872794201
5.335E+00	0.67669849	0.298442346	1.890005012	1.872794201
5.357E+00	0.67809257	0.299673267	1.890061902	1.872794201
5.379E+00	0.67948379	0.300904188	1.889966997	1.872794201
5.401E+00	0.680872168	0.302135109	1.889975082	1.872794201
5.423E+00	0.68225772	0.30336603	1.889977776	1.872794201
5.445E+00	0.683640465	0.304596951	1.889949657	1.872794201
5.467E+00	0.685020418	0.305827872	1.889948757	1.872794201
5.489E+00	0.686397596	0.307058793	1.889927605	1.872794201
5.511E+00	0.687772018	0.308289714	1.889877226	1.872794201
5.533E+00	0.689143698	0.309520636	1.889890315	1.872794201
5.555E+00	0.690512653	0.310751557	1.889768543	1.872794201
5.577E+00	0.691878899	0.311982478	1.889772519	1.872794201
5.599E+00	0.693242454	0.313213399	1.889772618	1.872794201
5.621E+00	0.694603331	0.31444432	1.889757395	1.872794201
5.643E+00	0.695961547	0.315675241	1.88971435	1.872794201
5.665E+00	0.697317118	0.316906162	1.889305422	1.872794201
5.687E+00	0.698670058	0.318137083	1.88910352	1.872794201
5.709E+00	0.700020384	0.319368004	1.889070398	1.872794201
5.731E+00	0.70136811	0.320598925	1.889057959	1.872794201
5.753E+00	0.702713252	0.321829846	1.889022481	1.872794201
5.775E+00	0.704055823	0.323060767	1.889030048	1.872794201
5.797E+00	0.705395839	0.324291688	1.888989625	1.872794201
5.819E+00	0.706733314	0.325522609	1.888956974	1.872794201
5.841E+00	0.708068263	0.32675353	1.888932052	1.872794201
5.863E+00	0.7094007	0.327984452	1.888876738	1.872794201
5.885E+00	0.710730639	0.329215373	1.888838319	1.872794201
5.907E+00	0.712058093	0.330446294	1.888806675	1.872794201
5.929E+00	0.713383078	0.331677215	1.888768626	1.872794201
5.951E+00	0.714705607	0.332908136	1.88870437	1.872794201
5.973E+00	0.716025692	0.334139057	1.888649774	1.872794201
5.995E+00	0.717343348	0.335369978	1.888654884	1.872794201
6.017E+00	0.718658589	0.336600899	1.888571707	1.872794201
6.039E+00	0.719971427	0.33783182	1.888566698	1.872794201
6.061E+00	0.721281875	0.339062741	1.888527255	1.872794201
6.083E+00	0.722589946	0.340293662	1.888475519	1.872794201
6.105E+00	0.723895654	0.341524583	1.888488345	1.872794201
6.127E+00	0.725199011	0.342755504	1.888348855	1.872794201
6.149E+00	0.72650003	0.343986425	1.888210389	1.872794201
6.171E+00	0.727798723	0.345217346	1.888138133	1.872794201
6.193E+00	0.729095103	0.346448267	1.888127437	1.872794201
6.215E+00	0.730389182	0.347679189	1.888102882	1.872794201
6.237E+00	0.731680972	0.34891011	1.88808498	1.872794201
6.259E+00	0.732970486	0.350141031	1.888063703	1.872794201
6.281E+00	0.734257735	0.351371952	1.888049302	1.872794201
6.303E+00	0.735542731	0.352602873	1.888035815	1.872794201
6.325E+00	0.736825486	0.353833794	1.888005906	1.872794201
6.347E+00	0.738106011	0.355064715	1.887973043	1.872794201
6.369E+00	0.73938432	0.356295636	1.887905465	1.872794201
6.391E+00	0.740660421	0.357526557	1.887835993	1.872794201
6.413E+00	0.741934328	0.358757478	1.887838568	1.872794201
6.435E+00	0.743206052	0.359988399	1.887826323	1.872794201
6.457E+00	0.744475603	0.36121932	1.887820826	1.872794201
6.479E+00	0.745742993	0.362450241	1.887825736	1.872794201
6.501E+00	0.747008232	0.363681162	1.887824052	1.872794201
6.523E+00	0.748271332	0.364912083	1.887917084	1.872794201
6.545E+00	0.749532304	0.366143005	1.887882186	1.872794201
6.567E+00	0.750791157	0.367373926	1.887901051	1.872794201
6.589E+00	0.752047904	0.368604847	1.887767887	1.872794201
6.611E+00	0.753302554	0.369835768	1.887307091	1.872794201
6.633E+00	0.754555118	0.371066689	1.886992177	1.872794201
6.655E+00	0.755805605	0.37229761	1.886943931	1.872794201
6.677E+00	0.757054028	0.373528531	1.886943607	1.872794201
6.699E+00	0.758300395	0.374759452	1.886985582	1.872794201
6.721E+00	0.759544717	0.375990373	1.887002826	1.872794201
6.743E+00	0.760787003	0.377221294	1.887005698	1.872794201
6.765E+00	0.762027265	0.378452215	1.886997304	1.872794201
6.787E+00	0.763265511	0.379683136	1.886981813	1.872794201
6.809E+00	0.764501751	0.380914057	1.886931937	1.872794201
6.831E+00	0.765735996	0.382144978	1.886933847	1.872794201
6.853E+00	0.766968254	0.383375899	1.886876541	1.872794201
6.875E+00	0.768198536	0.38460682	1.886899452	1.872794201
6.897E+00	0.769426851	0.385837742	1.886938822	1.872794201
6.919E+00	0.770653208	0.387068663	1.886903261	1.872794201
6.941E+00	0.771877616	0.388299584	1.886937626	1.872794201
6.963E+00	0.773100086	0.389530505	1.886953781	1.872794201
6.985E+00	0.774320625	0.390761426	1.886899673	1.872794201
7.007E+00	0.775539243	0.391992347	1.886936027	1.872794201
7.029E+00	0.77675595	0.393223268	1.886989997	1.872794201
7.051E+00	0.777970754	0.394454189	1.886897193	1.872794201
7.073E+00	0.779183663	0.39568511	1.886648707	1.872794201
7.095E+00	0.780394688	0.396916031	1.886401777	1.872794201
7.117E+00	0.781603836	0.398146952	1.886252015	1.872794201
7.139E+00	0.782811117	0.399377873	1.886225551	1.872794201
7.161E+00	0.784016538	0.400608794	1.886246009	1.872794201
7.183E+00	0.785220109	0.401839715	1.886206598	1.872794201
7.205E+00	0.786421838	0.403070636	1.886265435	1.872794201
7.227E+00	0.787621734	0.404301557	1.886266203	1.872794201
7.249E+00	0.788819804	0.405532479	1.886259964	1.872794201
7.271E+00	0.790016058	0.4067634	1.886202679	1.872794201
7.293E+00	0.791210502	0.407994321	1.886209438	1.872794201
7.315E+00	0.792403147	0.409225242	1.886263795	1.872794201
7.337E+00	0.793593999	0.410456163	1.886226463	1.872794201
7.359E+00	0.794783066	0.411687084	1.886284151	1.872794201
7.381E+00	0.795970358	0.412918005	1.886275909	1.872794201
7.403E+00	0.797155881	0.414148926	1.886272535	1.872794201
7.425E+00	0.798339643	0.415379847	1.886299015	1.872794201
7.447E+00	0.799521653	0.416610768	1.886301193	1.872794201
7.469E+00	0.800701918	0.417841689	1.886322973	1.872794201
7.491E+00	0.801880446	0.41907261	1.886307297	1.872794201
7.513E+00	0.803057244	0.420303531	1.886345917	1.872794201
7.535E+00	0.80423232	0.421534452	1.886241077	1.872794201
7.557E+00	0.805405682	0.422765373	1.885949596	1.872794201
7.579E+00	0.806577337	0.423996294	1.885725891	1.872794201
